3.0125 110
3.0375 115
3.0625 105
3.0875 100
3.1125 115
3.1375 112
3.1625 102
3.1875 105
3.2125 96
3.2375 98
3.2625 95
3.2875 107
3.3125 107
3.3375 89
3.3625 98
3.3875 107
3.4125 87
3.4375 73
3.4625 91
3.4875 87
3.5125 99
3.5375 100
3.5625 90
3.5875 79
3.6125 93
3.6375 79
3.6625 78
3.6875 110
3.7125 77
3.7375 87
3.7625 78
3.7875 98
3.8125 82
3.8375 75
3.8625 68
3.8875 77
3.9125 86
3.9375 60
3.9625 77
3.9875 69
4.0125 59
4.0375 83
4.0625 68
4.0875 65
4.1125 72
4.1375 68
4.1625 58
4.1875 74
4.2125 64
4.2375 81
4.2625 65
4.2875 73
4.3125 60
4.3375 63
4.3625 75
4.3875 57
4.4125 56
4.4375 66
4.4625 65
4.4875 62
4.5125 73
4.5375 59
4.5625 49
4.5875 61
4.6125 49
4.6375 61
4.6625 68
4.6875 63
4.7125 52
4.7375 61
4.7625 56
4.7875 60
4.8125 51
4.8375 69
4.8625 53
4.8875 53
4.9125 47
4.9375 44
4.9625 65
4.9875 56
5.0125 48
5.0375 51
5.0625 55
5.0875 51
5.1125 54
5.1375 56
5.1625 50
5.1875 57
5.2125 42
5.2375 51
5.2625 37
5.2875 55
5.3125 55
5.3375 60
5.3625 55
5.3875 56
5.4125 53
5.4375 40
5.4625 62
5.4875 47
5.5125 38
5.5375 50
5.5625 50
5.5875 57
5.6125 43
5.6375 48
5.6625 35
5.6875 47
5.7125 51
5.7375 44
5.7625 47
5.7875 38
5.8125 45
5.8375 43
5.8625 36
5.8875 39
5.9125 39
5.9375 42
5.9625 48
5.9875 46
6.0125 52
6.0375 37
6.0625 49
6.0875 35
6.1125 40
6.1375 42
6.1625 44
6.1875 40
6.2125 37
6.2375 37
6.2625 45
6.2875 42
6.3125 41
6.3375 50
6.3625 50
6.3875 36
6.4125 44
6.4375 32
6.4625 38
6.4875 46
6.5125 29
6.5375 38
6.5625 28
6.5875 50
6.6125 30
6.6375 39
6.6625 40
6.6875 54
6.7125 36
6.7375 34
6.7625 40
6.7875 41
6.8125 35
6.8375 40
6.8625 32
6.8875 41
6.9125 43
6.9375 47
6.9625 34
6.9875 34
7.0125 45
7.0375 42
7.0625 43
7.0875 36
7.1125 28
7.1375 36
7.1625 36
7.1875 42
7.2125 32
7.2375 38
7.2625 35
7.2875 39
7.3125 39
7.3375 27
7.3625 33
7.3875 28
7.4125 34
7.4375 29
7.4625 40
7.4875 46
7.5125 27
7.5375 39
7.5625 27
7.5875 33
7.6125 34
7.6375 31
7.6625 26
7.6875 36
7.7125 32
7.7375 28
7.7625 31
7.7875 30
7.8125 35
7.8375 37
7.8625 33
7.8875 30
7.9125 34
7.9375 30
7.9625 26
7.9875 35
8.0125 34
8.0375 38
8.0625 20
8.0875 36
8.1125 26
8.1375 20
8.1625 35
8.1875 34
8.2125 31
8.2375 29
8.2625 25
8.2875 25
8.3125 24
8.3375 24
8.3625 19
8.3875 31
8.4125 24
8.4375 34
8.4625 24
8.4875 39
8.5125 32
8.5375 27
8.5625 27
8.5875 29
8.6125 23
8.6375 31
8.6625 32
8.6875 31
8.7125 18
8.7375 23
8.7625 19
8.7875 28
8.8125 31
8.8375 32
8.8625 40
8.8875 22
8.9125 23
8.9375 23
8.9625 26
8.9875 31
9.0125 21
9.0375 23
9.0625 20
9.0875 25
9.1125 32
9.1375 24
9.1625 32
9.1875 24
9.2125 34
9.2375 25
9.2625 27
9.2875 22
9.3125 31
9.3375 16
9.3625 27
9.3875 31
9.4125 30
9.4375 23
9.4625 22
9.4875 26
9.5125 32
9.5375 29
9.5625 34
9.5875 21
9.6125 35
9.6375 26
9.6625 21
9.6875 27
9.7125 23
9.7375 29
9.7625 37
9.7875 26
9.8125 20
9.8375 28
9.8625 20
9.8875 29
9.9125 35
9.9375 32
9.9625 26
9.9875 31
10.0125 33
10.0375 37
10.0625 27
10.0875 31
10.1125 32
10.1375 19
10.1625 28
10.1875 30
10.2125 26
10.2375 25
10.2625 19
10.2875 33
10.3125 19
10.3375 21
10.3625 18
10.3875 26
10.4125 27
10.4375 24
10.4625 27
10.4875 28
10.5125 23
10.5375 18
10.5625 29
10.5875 25
10.6125 26
10.6375 21
10.6625 24
10.6875 23
10.7125 30
10.7375 36
10.7625 27
10.7875 27
10.8125 26
10.8375 14
10.8625 19
10.8875 25
10.9125 25
10.9375 27
10.9625 22
10.9875 31
11.0125 29
11.0375 28
11.0625 26
11.0875 18
11.1125 27
11.1375 17
11.1625 27
11.1875 30
11.2125 23
11.2375 24
11.2625 38
11.2875 27
11.3125 25
11.3375 20
11.3625 29
11.3875 30
11.4125 18
11.4375 22
11.4625 19
11.4875 20
11.5125 30
11.5375 30
11.5625 28
11.5875 25
11.6125 35
11.6375 22
11.6625 41
11.6875 32
11.7125 20
11.7375 21
11.7625 23
11.7875 34
11.8125 33
11.8375 19
11.8625 28
11.8875 24
11.9125 34
11.9375 35
11.9625 30
11.9875 37
12.0125 23
12.0375 21
12.0625 33
12.0875 31
12.1125 34
12.1375 27
12.1625 34
12.1875 23
12.2125 25
12.2375 20
12.2625 27
12.2875 34
12.3125 27
12.3375 27
12.3625 29
12.3875 18
12.4125 27
12.4375 30
12.4625 24
12.4875 31
12.5125 19
12.5375 26
12.5625 23
12.5875 34
12.6125 24
12.6375 26
12.6625 21
12.6875 33
12.7125 28
12.7375 17
12.7625 24
12.7875 24
12.8125 28
12.8375 38
12.8625 21
12.8875 33
12.9125 32
12.9375 32
12.9625 29
12.9875 33
13.0125 30
13.0375 28
13.0625 23
13.0875 37
13.1125 24
13.1375 22
13.1625 23
13.1875 22
13.2125 28
13.2375 33
13.2625 46
13.2875 26
13.3125 17
13.3375 25
13.3625 34
13.3875 17
13.4125 20
13.4375 38
13.4625 28
13.4875 42
13.5125 30
13.5375 37
13.5625 31
13.5875 24
13.6125 21
13.6375 26
13.6625 33
13.6875 28
13.7125 31
13.7375 33
13.7625 37
13.7875 39
13.8125 19
13.8375 32
13.8625 18
13.8875 23
13.9125 29
13.9375 27
13.9625 36
13.9875 30
14.0125 30
14.0375 37
14.0625 38
14.0875 41
14.1125 34
14.1375 37
14.1625 36
14.1875 25
14.2125 25
14.2375 29
14.2625 29
14.2875 32
14.3125 47
14.3375 35
14.3625 28
14.3875 24
14.4125 43
14.4375 34
14.4625 38
14.4875 28
14.5125 34
14.5375 23
14.5625 43
14.5875 39
14.6125 38
14.6375 47
14.6625 29
14.6875 32
14.7125 37
14.7375 28
14.7625 37
14.7875 33
14.8125 38
14.8375 29
14.8625 42
14.8875 31
14.9125 30
14.9375 38
14.9625 40
14.9875 34
15.0125 36
15.0375 40
15.0625 37
15.0875 35
15.1125 33
15.1375 41
15.1625 38
15.1875 37
15.2125 37
15.2375 37
15.2625 43
15.2875 39
15.3125 44
15.3375 32
15.3625 43
15.3875 42
15.4125 36
15.4375 44
15.4625 49
15.4875 35
15.5125 37
15.5375 36
15.5625 42
15.5875 29
15.6125 47
15.6375 42
15.6625 41
15.6875 40
15.7125 45
15.7375 37
15.7625 48
15.7875 37
15.8125 39
15.8375 52
15.8625 42
15.8875 51
15.9125 49
15.9375 42
15.9625 29
15.9875 42
16.0125 39
16.0375 42
16.0625 49
16.0875 56
16.1125 34
16.1375 45
16.1625 43
16.1875 33
16.2125 36
16.2375 50
16.2625 46
16.2875 45
16.3125 31
16.3375 38
16.3625 40
16.3875 45
16.4125 39
16.4375 46
16.4625 39
16.4875 49
16.5125 57
16.5375 49
16.5625 54
16.5875 37
16.6125 52
16.6375 46
16.6625 45
16.6875 43
16.7125 51
16.7375 46
16.7625 43
16.7875 56
16.8125 30
16.8375 59
16.8625 42
16.8875 38
16.9125 54
16.9375 46
16.9625 41
16.9875 59
17.0125 53
17.0375 58
17.0625 56
17.0875 57
17.1125 47
17.1375 48
17.1625 42
17.1875 58
17.2125 58
17.2375 43
17.2625 46
17.2875 62
17.3125 51
17.3375 41
17.3625 41
17.3875 59
17.4125 65
17.4375 49
17.4625 60
17.4875 56
17.5125 52
17.5375 59
17.5625 43
17.5875 46
17.6125 38
17.6375 59
17.6625 55
17.6875 49
17.7125 53
17.7375 47
17.7625 46
17.7875 51
17.8125 59
17.8375 43
17.8625 51
17.8875 69
17.9125 44
17.9375 39
17.9625 51
17.9875 60
18.0125 63
18.0375 51
18.0625 47
18.0875 59
18.1125 43
18.1375 64
18.1625 60
18.1875 71
18.2125 60
18.2375 70
18.2625 61
18.2875 59
18.3125 47
18.3375 55
18.3625 65
18.3875 56
18.4125 62
18.4375 55
18.4625 63
18.4875 60
18.5125 67
18.5375 68
18.5625 64
18.5875 51
18.6125 49
18.6375 67
18.6625 60
18.6875 61
18.7125 60
18.7375 64
18.7625 54
18.7875 54
18.8125 76
18.8375 73
18.8625 66
18.8875 58
18.9125 64
18.9375 79
18.9625 70
18.9875 63
19.0125 78
19.0375 79
19.0625 58
19.0875 71
19.1125 94
19.1375 81
19.1625 62
19.1875 72
19.2125 76
19.2375 85
19.2625 65
19.2875 63
19.3125 90
19.3375 63
19.3625 61
19.3875 72
19.4125 66
19.4375 62
19.4625 78
19.4875 82
19.5125 90
19.5375 62
19.5625 94
19.5875 85
19.6125 72
19.6375 84
19.6625 94
19.6875 80
19.7125 75
19.7375 66
19.7625 74
19.7875 73
19.8125 78
19.8375 75
19.8625 77
19.8875 78
19.9125 71
19.9375 65
19.9625 80
19.9875 83
20.0125 79
20.0375 82
20.0625 85
20.0875 64
20.1125 95
20.1375 82
20.1625 85
20.1875 94
20.2125 78
20.2375 95
20.2625 74
20.2875 86
20.3125 78
20.3375 69
20.3625 95
20.3875 63
20.4125 80
20.4375 75
20.4625 70
20.4875 65
20.5125 82
20.5375 84
20.5625 80
20.5875 81
20.6125 70
20.6375 78
20.6625 90
20.6875 84
20.7125 80
20.7375 89
20.7625 81
20.7875 91
20.8125 86
20.8375 102
20.8625 98
20.8875 82
20.9125 72
20.9375 95
20.9625 73
20.9875 80
21.0125 94
21.0375 83
21.0625 83
21.0875 86
21.1125 96
21.1375 71
21.1625 93
21.1875 89
21.2125 59
21.2375 81
21.2625 91
21.2875 106
21.3125 88
21.3375 100
21.3625 67
21.3875 91
21.4125 108
21.4375 98
21.4625 93
21.4875 83
21.5125 72
21.5375 63
21.5625 100
21.5875 79
21.6125 89
21.6375 94
21.6625 98
21.6875 100
21.7125 95
21.7375 98
21.7625 99
21.7875 87
21.8125 96
21.8375 112
21.8625 80
21.8875 95
21.9125 87
21.9375 102
21.9625 100
21.9875 98
22.0125 85
22.0375 93
22.0625 105
22.0875 98
22.1125 102
22.1375 91
22.1625 78
22.1875 95
22.2125 112
22.2375 92
22.2625 102
22.2875 97
22.3125 103
22.3375 107
22.3625 118
22.3875 98
22.4125 103
22.4375 117
22.4625 99
22.4875 86
22.5125 106
22.5375 108
22.5625 93
22.5875 98
22.6125 95
22.6375 86
22.6625 97
22.6875 104
22.7125 86
22.7375 101
22.7625 116
22.7875 118
22.8125 99
22.8375 95
22.8625 112
22.8875 88
22.9125 88
22.9375 96
22.9625 113
22.9875 85
23.0125 104
23.0375 103
23.0625 114
23.0875 113
23.1125 106
23.1375 102
23.1625 113
23.1875 106
23.2125 111
23.2375 98
23.2625 115
23.2875 103
23.3125 105
23.3375 92
23.3625 102
23.3875 95
23.4125 91
23.4375 105
23.4625 105
23.4875 112
23.5125 98
23.5375 101
23.5625 93
23.5875 99
23.6125 107
23.6375 119
23.6625 97
23.6875 106
23.7125 91
23.7375 96
23.7625 101
23.7875 106
23.8125 96
23.8375 92
23.8625 101
23.8875 102
23.9125 84
23.9375 106
23.9625 114
23.9875 100
24.0125 70
24.0375 107
24.0625 106
24.0875 128
24.1125 108
24.1375 121
24.1625 126
24.1875 117
24.2125 105
24.2375 103
24.2625 124
24.2875 87
24.3125 97
24.3375 105
24.3625 112
24.3875 111
24.4125 103
24.4375 92
24.4625 100
24.4875 92
24.5125 89
24.5375 111
24.5625 110
24.5875 101
24.6125 107
24.6375 104
24.6625 105
24.6875 89
24.7125 102
24.7375 109
24.7625 89
24.7875 126
24.8125 92
24.8375 98
24.8625 113
24.8875 107
24.9125 101
24.9375 87
24.9625 82
24.9875 116
25.0125 103
25.0375 119
25.0625 90
25.0875 91
25.1125 100
25.1375 113
25.1625 92
25.1875 122
25.2125 99
25.2375 99
25.2625 119
25.2875 107
25.3125 108
25.3375 117
25.3625 110
25.3875 100
25.4125 96
25.4375 87
25.4625 102
25.4875 90
25.5125 97
25.5375 99
25.5625 97
25.5875 108
25.6125 94
25.6375 101
25.6625 90
25.6875 92
25.7125 108
25.7375 113
25.7625 77
25.7875 105
25.8125 103
25.8375 112
25.8625 107
25.8875 111
25.9125 107
25.9375 93
25.9625 96
25.9875 109
26.0125 90
26.0375 109
26.0625 104
26.0875 96
26.1125 101
26.1375 99
26.1625 116
26.1875 108
26.2125 97
26.2375 101
26.2625 110
26.2875 86
26.3125 89
26.3375 96
26.3625 99
26.3875 107
26.4125 84
26.4375 100
26.4625 97
26.4875 113
26.5125 97
26.5375 93
26.5625 99
26.5875 100
26.6125 113
26.6375 83
26.6625 97
26.6875 90
26.7125 103
26.7375 98
26.7625 110
26.7875 99
26.8125 107
26.8375 94
26.8625 94
26.8875 100
26.9125 98
26.9375 99
26.9625 106
26.9875 91
27.0125 109
27.0375 101
27.0625 91
27.0875 94
27.1125 91
27.1375 93
27.1625 105
27.1875 108
27.2125 100
27.2375 108
27.2625 99
27.2875 95
27.3125 89
27.3375 113
27.3625 89
27.3875 100
27.4125 104
27.4375 98
27.4625 99
27.4875 91
27.5125 100
27.5375 90
27.5625 83
27.5875 84
27.6125 89
27.6375 102
27.6625 93
27.6875 79
27.7125 100
27.7375 84
27.7625 93
27.7875 89
27.8125 87
27.8375 95
27.8625 111
27.8875 99
27.9125 97
27.9375 84
27.9625 105
27.9875 83
28.0125 93
28.0375 77
28.0625 101
28.0875 79
28.1125 96
28.1375 91
28.1625 90
28.1875 97
28.2125 82
28.2375 88
28.2625 98
28.2875 96
28.3125 103
28.3375 91
28.3625 90
28.3875 93
28.4125 88
28.4375 102
28.4625 99
28.4875 103
28.5125 90
28.5375 104
28.5625 87
28.5875 81
28.6125 94
28.6375 95
28.6625 101
28.6875 85
28.7125 90
28.7375 97
28.7625 100
28.7875 127
28.8125 97
28.8375 118
28.8625 103
28.8875 85
28.9125 91
28.9375 99
28.9625 94
28.9875 86
29.0125 109
29.0375 98
29.0625 111
29.0875 84
29.1125 91
29.1375 103
29.1625 105
29.1875 82
29.2125 100
29.2375 63
29.2625 80
29.2875 98
29.3125 68
29.3375 77
29.3625 90
29.3875 76
29.4125 86
29.4375 81
29.4625 92
29.4875 98
29.5125 93
29.5375 77
29.5625 90
29.5875 73
29.6125 91
29.6375 80
29.6625 78
29.6875 92
29.7125 83
29.7375 86
29.7625 90
29.7875 88
29.8125 77
29.8375 91
29.8625 95
29.8875 92
29.9125 87
29.9375 97
29.9625 90
29.9875 95
30.0125 97
30.0375 85
30.0625 94
30.0875 91
30.1125 96
30.1375 91
30.1625 110
30.1875 80
30.2125 76
30.2375 88
30.2625 76
30.2875 95
30.3125 87
30.3375 77
30.3625 95
30.3875 79
30.4125 82
30.4375 88
30.4625 92
30.4875 79
30.5125 85
30.5375 85
30.5625 77
30.5875 87
30.6125 83
30.6375 70
30.6625 90
30.6875 74
30.7125 65
30.7375 85
30.7625 63
30.7875 83
30.8125 66
30.8375 83
30.8625 79
30.8875 66
30.9125 69
30.9375 79
30.9625 83
30.9875 72
31.0125 82
31.0375 86
31.0625 77
31.0875 90
31.1125 82
31.1375 70
31.1625 76
31.1875 83
31.2125 70
31.2375 79
31.2625 101
31.2875 81
31.3125 86
31.3375 87
31.3625 77
31.3875 84
31.4125 67
31.4375 93
31.4625 77
31.4875 86
31.5125 102
31.5375 81
31.5625 72
31.5875 74
31.6125 88
31.6375 91
31.6625 84
31.6875 80
31.7125 88
31.7375 85
31.7625 69
31.7875 76
31.8125 78
31.8375 71
31.8625 92
31.8875 72
31.9125 65
31.9375 75
31.9625 86
31.9875 83
32.0125 106
32.0375 90
32.0625 96
32.0875 106
32.1125 125
32.1375 129
32.1625 106
32.1875 129
32.2125 104
32.2375 97
32.2625 92
32.2875 94
32.3125 69
32.3375 74
32.3625 72
32.3875 86
32.4125 71
32.4375 93
32.4625 87
32.4875 93
32.5125 81
32.5375 73
32.5625 75
32.5875 90
32.6125 74
32.6375 67
32.6625 72
32.6875 64
32.7125 70
32.7375 65
32.7625 69
32.7875 95
32.8125 70
32.8375 83
32.8625 61
32.8875 66
32.9125 66
32.9375 70
32.9625 60
32.9875 67
33.0125 86
33.0375 64
33.0625 66
33.0875 67
33.1125 66
33.1375 74
33.1625 77
33.1875 73
33.2125 89
33.2375 68
33.2625 69
33.2875 69
33.3125 81
33.3375 64
33.3625 70
33.3875 74
33.4125 57
33.4375 88
33.4625 63
33.4875 67
33.5125 60
33.5375 75
33.5625 74
33.5875 65
33.6125 60
33.6375 73
33.6625 69
33.6875 63
33.7125 73
33.7375 60
33.7625 75
33.7875 65
33.8125 71
33.8375 47
33.8625 55
33.8875 58
33.9125 62
33.9375 77
33.9625 56
33.9875 81
34.0125 57
34.0375 53
34.0625 56
34.0875 59
34.1125 63
34.1375 80
34.1625 70
34.1875 74
34.2125 51
34.2375 54
34.2625 55
34.2875 72
34.3125 79
34.3375 72
34.3625 60
34.3875 61
34.4125 57
34.4375 61
34.4625 61
34.4875 72
34.5125 62
34.5375 71
34.5625 68
34.5875 60
34.6125 74
34.6375 55
34.6625 75
34.6875 60
34.7125 59
34.7375 77
34.7625 55
34.7875 74
34.8125 58
34.8375 70
34.8625 82
34.8875 69
34.9125 69
34.9375 75
34.9625 82
34.9875 61
35.0125 63
35.0375 66
35.0625 57
35.0875 58
35.1125 60
35.1375 67
35.1625 49
35.1875 61
35.2125 57
35.2375 66
35.2625 66
35.2875 69
35.3125 68
35.3375 45
35.3625 70
35.3875 62
35.4125 45
35.4375 61
35.4625 61
35.4875 61
35.5125 75
35.5375 49
35.5625 55
35.5875 36
35.6125 50
35.6375 64
35.6625 63
35.6875 66
35.7125 55
35.7375 60
35.7625 66
35.7875 54
35.8125 61
35.8375 61
35.8625 61
35.8875 62
35.9125 62
35.9375 60
35.9625 61
35.9875 60
36.0125 42
36.0375 60
36.0625 50
36.0875 58
36.1125 59
36.1375 59
36.1625 46
36.1875 53
36.2125 67
36.2375 60
36.2625 56
36.2875 49
36.3125 54
36.3375 47
36.3625 57
36.3875 52
36.4125 64
36.4375 66
36.4625 51
36.4875 61
36.5125 61
36.5375 63
36.5625 66
36.5875 75
36.6125 58
36.6375 85
36.6625 66
36.6875 59
36.7125 68
36.7375 52
36.7625 67
36.7875 56
36.8125 64
36.8375 51
36.8625 56
36.8875 53
36.9125 52
36.9375 57
36.9625 36
36.9875 53
37.0125 36
37.0375 44
37.0625 43
37.0875 50
37.1125 45
37.1375 43
37.1625 38
37.1875 63
37.2125 53
37.2375 54
37.2625 58
37.2875 45
37.3125 50
37.3375 43
37.3625 48
37.3875 44
37.4125 40
37.4375 59
37.4625 61
37.4875 53
37.5125 53
37.5375 55
37.5625 44
37.5875 64
37.6125 31
37.6375 41
37.6625 58
37.6875 40
37.7125 59
37.7375 40
37.7625 43
37.7875 32
37.8125 56
37.8375 45
37.8625 39
37.8875 45
37.9125 51
37.9375 50
37.9625 41
37.9875 45
38.0125 57
38.0375 58
38.0625 53
38.0875 41
38.1125 34
38.1375 47
38.1625 70
38.1875 39
38.2125 49
38.2375 53
38.2625 36
38.2875 51
38.3125 43
38.3375 46
38.3625 34
38.3875 48
38.4125 56
38.4375 49
38.4625 35
38.4875 53
38.5125 42
38.5375 36
38.5625 41
38.5875 42
38.6125 39
38.6375 39
38.6625 42
38.6875 61
38.7125 46
38.7375 48
38.7625 50
38.7875 42
38.8125 45
38.8375 41
38.8625 42
38.8875 51
38.9125 43
38.9375 43
38.9625 48
38.9875 45
39.0125 46
39.0375 49
39.0625 42
39.0875 44
39.1125 46
39.1375 44
39.1625 41
39.1875 42
39.2125 65
39.2375 52
39.2625 38
39.2875 48
39.3125 47
39.3375 41
39.3625 43
39.3875 35
39.4125 40
39.4375 40
39.4625 33
39.4875 45
39.5125 43
39.5375 34
39.5625 52
39.5875 44
39.6125 44
39.6375 36
39.6625 42
39.6875 46
39.7125 33
39.7375 45
39.7625 40
39.7875 44
39.8125 34
39.8375 50
39.8625 37
39.8875 37
39.9125 41
39.9375 40
39.9625 39
39.9875 46
40.0125 42
40.0375 49
40.0625 52
40.0875 40
40.1125 31
40.1375 37
40.1625 49
40.1875 39
40.2125 42
40.2375 47
40.2625 32
40.2875 35
40.3125 40
40.3375 36
40.3625 25
40.3875 39
40.4125 50
40.4375 39
40.4625 42
40.4875 41
40.5125 39
40.5375 39
40.5625 54
40.5875 43
40.6125 51
40.6375 43
40.6625 49
40.6875 44
40.7125 39
40.7375 53
40.7625 32
40.7875 43
40.8125 50
40.8375 48
40.8625 52
40.8875 53
40.9125 46
40.9375 35
40.9625 49
40.9875 38
41.0125 32
41.0375 60
41.0625 34
41.0875 47
41.1125 37
41.1375 36
41.1625 36
41.1875 41
41.2125 45
41.2375 52
41.2625 38
41.2875 40
41.3125 33
41.3375 37
41.3625 51
41.3875 38
41.4125 38
41.4375 49
41.4625 46
41.4875 51
41.5125 44
41.5375 50
41.5625 44
41.5875 44
41.6125 45
41.6375 43
41.6625 43
41.6875 35
41.7125 34
41.7375 44
41.7625 44
41.7875 40
41.8125 51
41.8375 51
41.8625 38
41.8875 45
41.9125 39
41.9375 43
41.9625 37
41.9875 41
42.0125 49
42.0375 54
42.0625 40
42.0875 47
42.1125 34
42.1375 39
42.1625 42
42.1875 32
42.2125 43
42.2375 32
42.2625 41
42.2875 36
42.3125 36
42.3375 42
42.3625 47
42.3875 40
42.4125 43
42.4375 37
42.4625 50
42.4875 47
42.5125 38
42.5375 39
42.5625 32
42.5875 44
42.6125 39
42.6375 40
42.6625 52
42.6875 38
42.7125 48
42.7375 46
42.7625 29
42.7875 52
42.8125 50
42.8375 42
42.8625 36
42.8875 38
42.9125 56
42.9375 40
42.9625 39
42.9875 34
43.0125 48
43.0375 31
43.0625 43
43.0875 46
43.1125 38
43.1375 37
43.1625 35
43.1875 47
43.2125 44
43.2375 44
43.2625 43
43.2875 50
43.3125 35
43.3375 30
43.3625 40
43.3875 40
43.4125 47
43.4375 37
43.4625 49
43.4875 48
43.5125 49
43.5375 65
43.5625 52
43.5875 37
43.6125 40
43.6375 43
43.6625 44
43.6875 46
43.7125 53
43.7375 33
43.7625 46
43.7875 42
43.8125 39
43.8375 47
43.8625 35
43.8875 49
43.9125 42
43.9375 38
43.9625 62
43.9875 49
44.0125 31
44.0375 41
44.0625 36
44.0875 45
44.1125 33
44.1375 38
44.1625 43
44.1875 28
44.2125 40
44.2375 30
44.2625 44
44.2875 31
44.3125 38
44.3375 47
44.3625 41
44.3875 39
44.4125 41
44.4375 43
44.4625 42
44.4875 42
44.5125 53
44.5375 38
44.5625 47
44.5875 33
44.6125 41
44.6375 48
44.6625 42
44.6875 42
44.7125 46
44.7375 46
44.7625 42
44.7875 35
44.8125 29
44.8375 44
44.8625 41
44.8875 40
44.9125 47
44.9375 45
44.9625 31
44.9875 45
45.0125 38
45.0375 35
45.0625 48
45.0875 53
45.1125 45
45.1375 43
45.1625 32
45.1875 35
45.2125 39
45.2375 40
45.2625 41
45.2875 43
45.3125 36
45.3375 30
45.3625 41
45.3875 37
45.4125 35
45.4375 44
45.4625 59
45.4875 37
45.5125 39
45.5375 42
45.5625 56
45.5875 49
45.6125 40
45.6375 40
45.6625 44
45.6875 46
45.7125 32
45.7375 27
45.7625 48
45.7875 43
45.8125 56
45.8375 46
45.8625 39
45.8875 38
45.9125 40
45.9375 33
45.9625 28
45.9875 35
46.0125 42
46.0375 41
46.0625 35
46.0875 53
46.1125 46
46.1375 41
46.1625 31
46.1875 40
46.2125 44
46.2375 38
46.2625 36
46.2875 45
46.3125 40
46.3375 40
46.3625 42
46.3875 30
46.4125 26
46.4375 40
46.4625 27
46.4875 29
46.5125 38
46.5375 39
46.5625 48
46.5875 50
46.6125 34
46.6375 42
46.6625 42
46.6875 42
46.7125 31
46.7375 41
46.7625 38
46.7875 26
46.8125 39
46.8375 44
46.8625 35
46.8875 42
46.9125 40
46.9375 40
46.9625 45
46.9875 37
47.0125 43
47.0375 42
47.0625 36
47.0875 38
47.1125 40
47.1375 38
47.1625 44
47.1875 25
47.2125 47
47.2375 37
47.2625 33
47.2875 46
47.3125 38
47.3375 46
47.3625 43
47.3875 41
47.4125 44
47.4375 36
47.4625 42
47.4875 32
47.5125 39
47.5375 49
47.5625 39
47.5875 40
47.6125 41
47.6375 42
47.6625 46
47.6875 34
47.7125 40
47.7375 34
47.7625 34
47.7875 32
47.8125 35
47.8375 39
47.8625 36
47.8875 34
47.9125 42
47.9375 33
47.9625 42
47.9875 37
48.0125 35
48.0375 38
48.0625 43
48.0875 36
48.1125 44
48.1375 39
48.1625 39
48.1875 41
48.2125 39
48.2375 42
48.2625 35
48.2875 32
48.3125 39
48.3375 36
48.3625 34
48.3875 46
48.4125 37
48.4375 43
48.4625 42
48.4875 34
48.5125 39
48.5375 37
48.5625 37
48.5875 40
48.6125 47
48.6375 43
48.6625 48
48.6875 35
48.7125 39
48.7375 30
48.7625 37
48.7875 32
48.8125 23
48.8375 37
48.8625 29
48.8875 41
48.9125 33
48.9375 42
48.9625 31
48.9875 39
49.0125 35
49.0375 38
49.0625 35
49.0875 30
49.1125 43
49.1375 35
49.1625 51
49.1875 36
49.2125 37
49.2375 34
49.2625 36
49.2875 48
49.3125 34
49.3375 33
49.3625 40
49.3875 36
49.4125 41
49.4375 33
49.4625 34
49.4875 33
49.5125 34
49.5375 33
49.5625 39
49.5875 37
49.6125 43
49.6375 42
49.6625 30
49.6875 40
49.7125 47
49.7375 35
49.7625 30
49.7875 31
49.8125 32
49.8375 37
49.8625 27
49.8875 42
49.9125 35
49.9375 29
49.9625 34
49.9875 45
50.0125 36
50.0375 34
50.0625 41
50.0875 33
50.1125 41
50.1375 28
50.1625 35
50.1875 38
50.2125 35
50.2375 37
50.2625 44
50.2875 40
50.3125 37
50.3375 36
50.3625 36
50.3875 27
50.4125 27
50.4375 33
50.4625 44
50.4875 36
50.5125 42
50.5375 37
50.5625 35
50.5875 34
50.6125 37
50.6375 33
50.6625 28
50.6875 40
50.7125 32
50.7375 32
50.7625 42
50.7875 34
50.8125 34
50.8375 41
50.8625 22
50.8875 38
50.9125 36
50.9375 46
50.9625 42
50.9875 46
51.0125 31
51.0375 30
51.0625 42
51.0875 34
51.1125 47
51.1375 49
51.1625 33
51.1875 34
51.2125 32
51.2375 31
51.2625 40
51.2875 40
51.3125 27
51.3375 39
51.3625 32
51.3875 42
51.4125 43
51.4375 35
51.4625 35
51.4875 35
51.5125 28
51.5375 38
51.5625 23
51.5875 37
51.6125 33
51.6375 32
51.6625 31
51.6875 37
51.7125 42
51.7375 42
51.7625 36
51.7875 42
51.8125 32
51.8375 35
51.8625 28
51.8875 38
51.9125 36
51.9375 35
51.9625 25
51.9875 29
52.0125 33
52.0375 30
52.0625 44
52.0875 26
52.1125 39
52.1375 44
52.1625 28
52.1875 44
52.2125 30
52.2375 43
52.2625 42
52.2875 27
52.3125 27
52.3375 36
52.3625 47
52.3875 43
52.4125 30
52.4375 39
52.4625 33
52.4875 39
52.5125 39
52.5375 35
52.5625 40
52.5875 40
52.6125 29
52.6375 43
52.6625 38
52.6875 25
52.7125 37
52.7375 33
52.7625 42
52.7875 40
52.8125 31
52.8375 27
52.8625 36
52.8875 34
52.9125 35
52.9375 35
52.9625 39
52.9875 36
53.0125 26
53.0375 36
53.0625 47
53.0875 43
53.1125 24
53.1375 43
53.1625 45
53.1875 38
53.2125 32
53.2375 33
53.2625 37
53.2875 32
53.3125 51
53.3375 39
53.3625 48
53.3875 27
53.4125 35
53.4375 41
53.4625 51
53.4875 38
53.5125 33
53.5375 29
53.5625 43
53.5875 33
53.6125 25
53.6375 44
53.6625 36
53.6875 34
53.7125 30
53.7375 32
53.7625 38
53.7875 33
53.8125 42
53.8375 34
53.8625 39
53.8875 39
53.9125 41
53.9375 39
53.9625 30
53.9875 38
54.0125 44
54.0375 31
54.0625 31
54.0875 46
54.1125 41
54.1375 36
54.1625 34
54.1875 30
54.2125 35
54.2375 29
54.2625 42
54.2875 33
54.3125 42
54.3375 35
54.3625 46
54.3875 35
54.4125 38
54.4375 27
54.4625 31
54.4875 25
54.5125 34
54.5375 43
54.5625 35
54.5875 42
54.6125 28
54.6375 29
54.6625 40
54.6875 40
54.7125 41
54.7375 36
54.7625 43
54.7875 34
54.8125 28
54.8375 39
54.8625 31
54.8875 39
54.9125 31
54.9375 32
54.9625 29
54.9875 38
55.0125 31
55.0375 27
55.0625 39
55.0875 45
55.1125 25
55.1375 36
55.1625 39
55.1875 47
55.2125 34
55.2375 39
55.2625 39
55.2875 41
55.3125 43
55.3375 46
55.3625 39
55.3875 34
55.4125 40
55.4375 54
55.4625 35
55.4875 45
55.5125 36
55.5375 38
55.5625 40
55.5875 34
55.6125 48
55.6375 41
55.6625 32
55.6875 39
55.7125 31
55.7375 22
55.7625 41
55.7875 34
55.8125 25
55.8375 40
55.8625 36
55.8875 32
55.9125 35
55.9375 31
55.9625 40
55.9875 34
56.0125 33
56.0375 42
56.0625 28
56.0875 31
56.1125 36
56.1375 32
56.1625 34
56.1875 45
56.2125 35
56.2375 34
56.2625 36
56.2875 51
56.3125 35
56.3375 41
56.3625 33
56.3875 33
56.4125 34
56.4375 38
56.4625 29
56.4875 33
56.5125 37
56.5375 26
56.5625 35
56.5875 35
56.6125 49
56.6375 39
56.6625 31
56.6875 44
56.7125 41
56.7375 27
56.7625 34
56.7875 45
56.8125 41
56.8375 33
56.8625 39
56.8875 40
56.9125 38
56.9375 42
56.9625 35
56.9875 31
57.0125 42
57.0375 27
57.0625 27
57.0875 39
57.1125 40
57.1375 28
57.1625 42
57.1875 34
57.2125 45
57.2375 34
57.2625 42
57.2875 38
57.3125 44
57.3375 37
57.3625 40
57.3875 19
57.4125 25
57.4375 32
57.4625 39
57.4875 36
57.5125 24
57.5375 41
57.5625 42
57.5875 37
57.6125 50
57.6375 32
57.6625 26
57.6875 28
57.7125 32
57.7375 35
57.7625 33
57.7875 39
57.8125 38
57.8375 44
57.8625 41
57.8875 28
57.9125 36
57.9375 32
57.9625 35
57.9875 35
58.0125 39
58.0375 38
58.0625 27
58.0875 45
58.1125 40
58.1375 35
58.1625 25
58.1875 44
58.2125 37
58.2375 50
58.2625 38
58.2875 38
58.3125 36
58.3375 49
58.3625 45
58.3875 34
58.4125 36
58.4375 32
58.4625 34
58.4875 44
58.5125 40
58.5375 41
58.5625 39
58.5875 39
58.6125 31
58.6375 32
58.6625 36
58.6875 37
58.7125 33
58.7375 43
58.7625 30
58.7875 34
58.8125 27
58.8375 38
58.8625 29
58.8875 28
58.9125 47
58.9375 39
58.9625 28
58.9875 35
59.0125 28
59.0375 36
59.0625 47
59.0875 31
59.1125 34
59.1375 37
59.1625 40
59.1875 33
59.2125 40
59.2375 36
59.2625 45
59.2875 26
59.3125 35
59.3375 34
59.3625 32
59.3875 30
59.4125 34
59.4375 37
59.4625 50
59.4875 45
59.5125 32
59.5375 28
59.5625 34
59.5875 29
59.6125 37
59.6375 47
59.6625 42
59.6875 47
59.7125 31
59.7375 34
59.7625 47
59.7875 28
59.8125 48
59.8375 43
59.8625 35
59.8875 32
59.9125 35
59.9375 36
59.9625 42
59.9875 29
60.0125 44
60.0375 37
60.0625 35
60.0875 39
60.1125 30
60.1375 35
60.1625 30
60.1875 26
60.2125 33
60.2375 39
60.2625 34
60.2875 43
60.3125 31
60.3375 39
60.3625 30
60.3875 38
60.4125 38
60.4375 40
60.4625 47
60.4875 39
60.5125 37
60.5375 39
60.5625 39
60.5875 26
60.6125 47
60.6375 46
60.6625 42
60.6875 43
60.7125 37
60.7375 42
60.7625 33
60.7875 32
60.8125 33
60.8375 38
60.8625 14
60.8875 31
60.9125 41
60.9375 43
60.9625 40
60.9875 26
61.0125 32
61.0375 31
61.0625 35
61.0875 41
61.1125 34
61.1375 27
61.1625 35
61.1875 43
61.2125 33
61.2375 39
61.2625 32
61.2875 45
61.3125 27
61.3375 39
61.3625 34
61.3875 32
61.4125 25
61.4375 39
61.4625 45
61.4875 33
61.5125 39
61.5375 38
61.5625 44
61.5875 28
61.6125 43
61.6375 47
61.6625 49
61.6875 42
61.7125 50
61.7375 41
61.7625 35
61.7875 46
61.8125 34
61.8375 35
61.8625 36
61.8875 34
61.9125 32
61.9375 45
61.9625 29
61.9875 27
62.0125 29
62.0375 44
62.0625 49
62.0875 31
62.1125 42
62.1375 39
62.1625 39
62.1875 38
62.2125 36
62.2375 35
62.2625 39
62.2875 38
62.3125 40
62.3375 46
62.3625 35
62.3875 35
62.4125 40
62.4375 30
62.4625 23
62.4875 40
62.5125 32
62.5375 30
62.5625 36
62.5875 43
62.6125 45
62.6375 32
62.6625 48
62.6875 38
62.7125 41
62.7375 32
62.7625 44
62.7875 33
62.8125 35
62.8375 47
62.8625 38
62.8875 21
62.9125 37
62.9375 34
62.9625 37
62.9875 28
63.0125 33
63.0375 26
63.0625 37
63.0875 44
63.1125 44
63.1375 47
63.1625 47
63.1875 45
63.2125 37
63.2375 36
63.2625 34
63.2875 42
63.3125 36
63.3375 43
63.3625 36
63.3875 35
63.4125 36
63.4375 31
63.4625 36
63.4875 33
63.5125 34
63.5375 35
63.5625 54
63.5875 35
63.6125 40
63.6375 33
63.6625 42
63.6875 37
63.7125 29
63.7375 30
63.7625 41
63.7875 40
63.8125 30
63.8375 34
63.8625 46
63.8875 35
63.9125 32
63.9375 36
63.9625 45
63.9875 33
64.0125 28
64.0375 34
64.0625 42
64.0875 31
64.1125 34
64.1375 32
64.1625 36
64.1875 29
64.2125 34
64.2375 29
64.2625 36
64.2875 30
64.3125 39
64.3375 35
64.3625 24
64.3875 35
64.4125 28
64.4375 30
64.4625 25
64.4875 38
64.5125 36
64.5375 23
64.5625 30
64.5875 38
64.6125 42
64.6375 39
64.6625 29
64.6875 36
64.7125 39
64.7375 38
64.7625 39
64.7875 35
64.8125 35
64.8375 34
64.8625 38
64.8875 39
64.9125 46
64.9375 33
64.9625 34
64.9875 33
65.0125 35
65.0375 32
65.0625 32
65.0875 25
65.1125 40
65.1375 42
65.1625 31
65.1875 31
65.2125 37
65.2375 36
65.2625 36
65.2875 22
65.3125 37
65.3375 42
65.3625 31
65.3875 42
65.4125 37
65.4375 38
65.4625 30
65.4875 38
65.5125 34
65.5375 37
65.5625 46
65.5875 29
65.6125 20
65.6375 31
65.6625 34
65.6875 30
65.7125 40
65.7375 32
65.7625 33
65.7875 32
65.8125 36
65.8375 39
65.8625 29
65.8875 42
65.9125 41
65.9375 39
65.9625 32
65.9875 41
66.0125 30
66.0375 35
66.0625 37
66.0875 35
66.1125 32
66.1375 32
66.1625 38
66.1875 41
66.2125 44
66.2375 40
66.2625 50
66.2875 43
66.3125 34
66.3375 31
66.3625 34
66.3875 33
66.4125 34
66.4375 44
66.4625 33
66.4875 33
66.5125 34
66.5375 44
66.5625 36
66.5875 40
66.6125 34
66.6375 32
66.6625 42
66.6875 30
66.7125 36
66.7375 44
66.7625 41
66.7875 29
66.8125 38
66.8375 23
66.8625 35
66.8875 36
66.9125 41
66.9375 31
66.9625 38
66.9875 37
67.0125 30
67.0375 36
67.0625 38
67.0875 30
67.1125 36
67.1375 34
67.1625 29
67.1875 36
67.2125 28
67.2375 33
67.2625 34
67.2875 35
67.3125 31
67.3375 36
67.3625 35
67.3875 41
67.4125 26
67.4375 34
67.4625 32
67.4875 26
67.5125 34
67.5375 32
67.5625 27
67.5875 37
67.6125 54
67.6375 36
67.6625 31
67.6875 24
67.7125 35
67.7375 26
67.7625 39
67.7875 41
67.8125 46
67.8375 34
67.8625 29
67.8875 43
67.9125 34
67.9375 35
67.9625 37
67.9875 33
68.0125 29
68.0375 27
68.0625 30
68.0875 21
68.1125 27
68.1375 40
68.1625 26
68.1875 36
68.2125 26
68.2375 40
68.2625 38
68.2875 40
68.3125 28
68.3375 39
68.3625 38
68.3875 37
68.4125 33
68.4375 35
68.4625 44
68.4875 41
68.5125 40
68.5375 41
68.5625 38
68.5875 39
68.6125 25
68.6375 27
68.6625 33
68.6875 30
68.7125 30
68.7375 29
68.7625 30
68.7875 23
68.8125 34
68.8375 33
68.8625 30
68.8875 37
68.9125 32
68.9375 36
68.9625 33
68.9875 36
69.0125 42
69.0375 26
69.0625 29
69.0875 26
69.1125 31
69.1375 30
69.1625 21
69.1875 40
69.2125 30
69.2375 34
69.2625 18
69.2875 26
69.3125 26
69.3375 31
69.3625 29
69.3875 37
69.4125 28
69.4375 28
69.4625 45
69.4875 35
69.5125 31
69.5375 34
69.5625 24
69.5875 39
69.6125 33
69.6375 31
69.6625 33
69.6875 33
69.7125 26
69.7375 27
69.7625 39
69.7875 34
69.8125 36
69.8375 28
69.8625 33
69.8875 41
69.9125 33
69.9375 38
69.9625 26