3.0125,150
3.0375,153
3.0625,167
3.0875,124
3.1125,122
3.1375,150
3.1625,131
3.1875,155
3.2125,140
3.2375,145
3.2625,117
3.2875,123
3.3125,127
3.3375,117
3.3625,120
3.3875,120
3.4125,96
3.4375,122
3.4625,106
3.4875,95
3.5125,97
3.5375,126
3.5625,99
3.5875,108
3.6125,77
3.6375,98
3.6625,92
3.6875,98
3.7125,98
3.7375,83
3.7625,105
3.7875,84
3.8125,80
3.8375,87
3.8625,71
3.8875,77
3.9125,75
3.9375,93
3.9625,79
3.9875,81
4.0125,87
4.0375,78
4.0625,69
4.0875,57
4.1125,66
4.1375,70
4.1625,65
4.1875,74
4.2125,83
4.2375,79
4.2625,61
4.2875,72
4.3125,69
4.3375,70
4.3625,63
4.3875,66
4.4125,52
4.4375,76
4.4625,54
4.4875,79
4.5125,54
4.5375,85
4.5625,62
4.5875,49
4.6125,60
4.6375,59
4.6625,51
4.6875,55
4.7125,58
4.7375,58
4.7625,73
4.7875,59
4.8125,52
4.8375,57
4.8625,60
4.8875,50
4.9125,67
4.9375,46
4.9625,48
4.9875,57
5.0125,62
5.0375,55
5.0625,45
5.0875,62
5.1125,52
5.1375,49
5.1625,62
5.1875,46
5.2125,27
5.2375,59
5.2625,54
5.2875,46
5.3125,54
5.3375,42
5.3625,50
5.3875,47
5.4125,54
5.4375,42
5.4625,50
5.4875,41
5.5125,49
5.5375,38
5.5625,58
5.5875,39
5.6125,60
5.6375,35
5.6625,31
5.6875,31
5.7125,43
5.7375,45
5.7625,43
5.7875,47
5.8125,36
5.8375,36
5.8625,41
5.8875,44
5.9125,44
5.9375,36
5.9625,26
5.9875,27
6.0125,35
6.0375,25
6.0625,45
6.0875,37
6.1125,33
6.1375,35
6.1625,38
6.1875,40
6.2125,33
6.2375,29
6.2625,33
6.2875,29
6.3125,36
6.3375,36
6.3625,37
6.3875,39
6.4125,36
6.4375,36
6.4625,25
6.4875,40
6.5125,30
6.5375,33
6.5625,44
6.5875,34
6.6125,37
6.6375,43
6.6625,34
6.6875,37
6.7125,38
6.7375,31
6.7625,33
6.7875,39
6.8125,22
6.8375,35
6.8625,36
6.8875,40
6.9125,21
6.9375,28
6.9625,45
6.9875,32
7.0125,38
7.0375,30
7.0625,30
7.0875,26
7.1125,31
7.1375,35
7.1625,26
7.1875,31
7.2125,33
7.2375,26
7.2625,35
7.2875,30
7.3125,30
7.3375,30
7.3625,23
7.3875,23
7.4125,31
7.4375,27
7.4625,24
7.4875,24
7.5125,33
7.5375,35
7.5625,31
7.5875,27
7.6125,33
7.6375,36
7.6625,29
7.6875,30
7.7125,30
7.7375,28
7.7625,31
7.7875,24
7.8125,29
7.8375,29
7.8625,19
7.8875,32
7.9125,21
7.9375,23
7.9625,28
7.9875,24
8.0125,33
8.0375,29
8.0625,36
8.0875,30
8.1125,28
8.1375,32
8.1625,27
8.1875,30
8.2125,31
8.2375,17
8.2625,32
8.2875,27
8.3125,24
8.3375,35
8.3625,25
8.3875,29
8.4125,26
8.4375,32
8.4625,26
8.4875,31
8.5125,24
8.5375,25
8.5625,26
8.5875,28
8.6125,27
8.6375,27
8.6625,18
8.6875,29
8.7125,25
8.7375,27
8.7625,25
8.7875,28
8.8125,24
8.8375,24
8.8625,25
8.8875,23
8.9125,31
8.9375,26
8.9625,27
8.9875,24
9.0125,24
9.0375,24
9.0625,20
9.0875,26
9.1125,26
9.1375,21
9.1625,33
9.1875,23
9.2125,22
9.2375,27
9.2625,12
9.2875,27
9.3125,26
9.3375,23
9.3625,25
9.3875,20
9.4125,26
9.4375,18
9.4625,26
9.4875,25
9.5125,22
9.5375,31
9.5625,20
9.5875,22
9.6125,17
9.6375,25
9.6625,24
9.6875,21
9.7125,22
9.7375,30
9.7625,28
9.7875,25
9.8125,19
9.8375,27
9.8625,24
9.8875,27
9.9125,32
9.9375,32
9.9625,19
9.9875,31
10.0125,16
10.0375,31
10.0625,18
10.0875,27
10.1125,29
10.1375,22
10.1625,22
10.1875,19
10.2125,28
10.2375,22
10.2625,27
10.2875,26
10.3125,21
10.3375,23
10.3625,25
10.3875,26
10.4125,29
10.4375,24
10.4625,32
10.4875,28
10.5125,17
10.5375,25
10.5625,20
10.5875,23
10.6125,20
10.6375,28
10.6625,32
10.6875,33
10.7125,25
10.7375,23
10.7625,26
10.7875,19
10.8125,14
10.8375,20
10.8625,30
10.8875,26
10.9125,21
10.9375,10
10.9625,30
10.9875,22
11.0125,18
11.0375,20
11.0625,11
11.0875,20
11.1125,18
11.1375,25
11.1625,23
11.1875,21
11.2125,23
11.2375,28
11.2625,22
11.2875,18
11.3125,21
11.3375,26
11.3625,17
11.3875,25
11.4125,17
11.4375,18
11.4625,26
11.4875,24
11.5125,25
11.5375,22
11.5625,18
11.5875,19
11.6125,32
11.6375,27
11.6625,24
11.6875,26
11.7125,21
11.7375,22
11.7625,27
11.7875,30
11.8125,27
11.8375,28
11.8625,22
11.8875,24
11.9125,22
11.9375,22
11.9625,22
11.9875,21
12.0125,20
12.0375,33
12.0625,27
12.0875,21
12.1125,28
12.1375,26
12.1625,15
12.1875,21
12.2125,30
12.2375,22
12.2625,10
12.2875,23
12.3125,25
12.3375,20
12.3625,24
12.3875,25
12.4125,27
12.4375,21
12.4625,22
12.4875,25
12.5125,18
12.5375,17
12.5625,26
12.5875,22
12.6125,29
12.6375,20
12.6625,25
12.6875,19
12.7125,19
12.7375,18
12.7625,35
12.7875,25
12.8125,22
12.8375,30
12.8625,14
12.8875,17
12.9125,27
12.9375,16
12.9625,27
12.9875,23
13.0125,22
13.0375,23
13.0625,35
13.0875,21
13.1125,28
13.1375,27
13.1625,32
13.1875,23
13.2125,31
13.2375,14
13.2625,23
13.2875,16
13.3125,28
13.3375,23
13.3625,34
13.3875,29
13.4125,18
13.4375,24
13.4625,31
13.4875,18
13.5125,23
13.5375,23
13.5625,25
13.5875,28
13.6125,15
13.6375,25
13.6625,23
13.6875,25
13.7125,34
13.7375,22
13.7625,21
13.7875,31
13.8125,20
13.8375,28
13.8625,27
13.8875,33
13.9125,15
13.9375,31
13.9625,21
13.9875,22
14.0125,30
14.0375,21
14.0625,21
14.0875,33
14.1125,29
14.1375,34
14.1625,40
14.1875,32
14.2125,29
14.2375,23
14.2625,34
14.2875,21
14.3125,27
14.3375,22
14.3625,18
14.3875,37
14.4125,26
14.4375,19
14.4625,29
14.4875,27
14.5125,26
14.5375,34
14.5625,21
14.5875,29
14.6125,38
14.6375,19
14.6625,33
14.6875,33
14.7125,19
14.7375,21
14.7625,28
14.7875,27
14.8125,28
14.8375,29
14.8625,19
14.8875,34
14.9125,23
14.9375,15
14.9625,27
14.9875,32
15.0125,26
15.0375,28
15.0625,19
15.0875,36
15.1125,23
15.1375,33
15.1625,25
15.1875,39
15.2125,19
15.2375,39
15.2625,27
15.2875,45
15.3125,36
15.3375,35
15.3625,33
15.3875,31
15.4125,25
15.4375,37
15.4625,35
15.4875,28
15.5125,34
15.5375,34
15.5625,31
15.5875,33
15.6125,32
15.6375,41
15.6625,36
15.6875,40
15.7125,37
15.7375,30
15.7625,29
15.7875,31
15.8125,24
15.8375,28
15.8625,36
15.8875,37
15.9125,38
15.9375,35
15.9625,38
15.9875,52
16.0125,38
16.0375,42
16.0625,31
16.0875,32
16.1125,36
16.1375,34
16.1625,25
16.1875,37
16.2125,38
16.2375,37
16.2625,42
16.2875,33
16.3125,34
16.3375,31
16.3625,39
16.3875,42
16.4125,30
16.4375,46
16.4625,31
16.4875,30
16.5125,40
16.5375,36
16.5625,37
16.5875,47
16.6125,40
16.6375,45
16.6625,41
16.6875,41
16.7125,45
16.7375,46
16.7625,39
16.7875,38
16.8125,43
16.8375,44
16.8625,33
16.8875,49
16.9125,48
16.9375,58
16.9625,40
16.9875,37
17.0125,49
17.0375,38
17.0625,35
17.0875,40
17.1125,36
17.1375,43
17.1625,48
17.1875,43
17.2125,39
17.2375,50
17.2625,44
17.2875,38
17.3125,44
17.3375,53
17.3625,45
17.3875,55
17.4125,46
17.4375,35
17.4625,42
17.4875,45
17.5125,42
17.5375,58
17.5625,49
17.5875,48
17.6125,52
17.6375,53
17.6625,49
17.6875,44
17.7125,50
17.7375,43
17.7625,44
17.7875,46
17.8125,50
17.8375,53
17.8625,47
17.8875,46
17.9125,47
17.9375,43
17.9625,47
17.9875,40
18.0125,53
18.0375,45
18.0625,61
18.0875,59
18.1125,58
18.1375,47
18.1625,44
18.1875,57
18.2125,51
18.2375,45
18.2625,50
18.2875,52
18.3125,52
18.3375,43
18.3625,53
18.3875,59
18.4125,63
18.4375,49
18.4625,52
18.4875,58
18.5125,44
18.5375,61
18.5625,45
18.5875,61
18.6125,53
18.6375,53
18.6625,42
18.6875,35
18.7125,56
18.7375,59
18.7625,68
18.7875,70
18.8125,65
18.8375,69
18.8625,60
18.8875,65
18.9125,66
18.9375,56
18.9625,50
18.9875,56
19.0125,45
19.0375,62
19.0625,52
19.0875,66
19.1125,52
19.1375,64
19.1625,60
19.1875,64
19.2125,58
19.2375,59
19.2625,61
19.2875,51
19.3125,56
19.3375,68
19.3625,53
19.3875,48
19.4125,67
19.4375,55
19.4625,51
19.4875,61
19.5125,55
19.5375,70
19.5625,58
19.5875,62
19.6125,69
19.6375,62
19.6625,61
19.6875,49
19.7125,59
19.7375,77
19.7625,67
19.7875,66
19.8125,53
19.8375,69
19.8625,76
19.8875,70
19.9125,67
19.9375,72
19.9625,68
19.9875,62
20.0125,63
20.0375,55
20.0625,53
20.0875,61
20.1125,65
20.1375,58
20.1625,65
20.1875,55
20.2125,63
20.2375,64
20.2625,68
20.2875,55
20.3125,70
20.3375,70
20.3625,71
20.3875,71
20.4125,75
20.4375,68
20.4625,68
20.4875,67
20.5125,85
20.5375,78
20.5625,69
20.5875,63
20.6125,68
20.6375,60
20.6625,61
20.6875,69
20.7125,66
20.7375,71
20.7625,66
20.7875,55
20.8125,78
20.8375,69
20.8625,83
20.8875,75
20.9125,64
20.9375,76
20.9625,73
20.9875,71
21.0125,71
21.0375,69
21.0625,66
21.0875,67
21.1125,66
21.1375,82
21.1625,74
21.1875,85
21.2125,76
21.2375,84
21.2625,79
21.2875,75
21.3125,80
21.3375,77
21.3625,91
21.3875,81
21.4125,78
21.4375,82
21.4625,76
21.4875,80
21.5125,80
21.5375,74
21.5625,83
21.5875,97
21.6125,70
21.6375,86
21.6625,79
21.6875,91
21.7125,84
21.7375,102
21.7625,66
21.7875,89
21.8125,80
21.8375,83
21.8625,87
21.8875,85
21.9125,90
21.9375,59
21.9625,85
21.9875,76
22.0125,71
22.0375,83
22.0625,91
22.0875,88
22.1125,88
22.1375,69
22.1625,86
22.1875,72
22.2125,84
22.2375,91
22.2625,78
22.2875,82
22.3125,92
22.3375,102
22.3625,71
22.3875,88
22.4125,88
22.4375,93
22.4625,105
22.4875,85
22.5125,94
22.5375,84
22.5625,68
22.5875,87
22.6125,92
22.6375,93
22.6625,85
22.6875,81
22.7125,76
22.7375,81
22.7625,88
22.7875,76
22.8125,94
22.8375,79
22.8625,81
22.8875,80
22.9125,86
22.9375,94
22.9625,84
22.9875,96
23.0125,75
23.0375,87
23.0625,81
23.0875,95
23.1125,106
23.1375,81
23.1625,105
23.1875,78
23.2125,79
23.2375,81
23.2625,78
23.2875,102
23.3125,69
23.3375,75
23.3625,91
23.3875,85
23.4125,84
23.4375,71
23.4625,87
23.4875,77
23.5125,84
23.5375,82
23.5625,75
23.5875,77
23.6125,87
23.6375,91
23.6625,88
23.6875,88
23.7125,89
23.7375,93
23.7625,89
23.7875,82
23.8125,101
23.8375,107
23.8625,82
23.8875,100
23.9125,90
23.9375,89
23.9625,96
23.9875,90
24.0125,85
24.0375,101
24.0625,84
24.0875,84
24.1125,91
24.1375,91
24.1625,89
24.1875,96
24.2125,84
24.2375,107
24.2625,105
24.2875,102
24.3125,91
24.3375,85
24.3625,93
24.3875,96
24.4125,81
24.4375,104
24.4625,85
24.4875,93
24.5125,79
24.5375,93
24.5625,78
24.5875,70
24.6125,91
24.6375,84
24.6625,90
24.6875,71
24.7125,88
24.7375,97
24.7625,99
24.7875,80
24.8125,107
24.8375,91
24.8625,92
24.8875,88
24.9125,90
24.9375,82
24.9625,106
24.9875,78
25.0125,83
25.0375,90
25.0625,79
25.0875,87
25.1125,96
25.1375,89
25.1625,101
25.1875,95
25.2125,77
25.2375,90
25.2625,78
25.2875,77
25.3125,102
25.3375,78
25.3625,89
25.3875,78
25.4125,105
25.4375,101
25.4625,92
25.4875,97
25.5125,81
25.5375,87
25.5625,90
25.5875,91
25.6125,92
25.6375,63
25.6625,102
25.6875,82
25.7125,89
25.7375,83
25.7625,87
25.7875,77
25.8125,105
25.8375,97
25.8625,98
25.8875,78
25.9125,92
25.9375,92
25.9625,88
25.9875,113
26.0125,86
26.0375,92
26.0625,75
26.0875,83
26.1125,84
26.1375,76
26.1625,81
26.1875,63
26.2125,100
26.2375,87
26.2625,85
26.2875,66
26.3125,85
26.3375,97
26.3625,83
26.3875,106
26.4125,82
26.4375,100
26.4625,102
26.4875,72
26.5125,73
26.5375,108
26.5625,93
26.5875,108
26.6125,71
26.6375,87
26.6625,94
26.6875,96
26.7125,90
26.7375,68
26.7625,91
26.7875,93
26.8125,70
26.8375,74
26.8625,80
26.8875,92
26.9125,79
26.9375,84
26.9625,69
26.9875,85
27.0125,91
27.0375,75
27.0625,81
27.0875,80
27.1125,81
27.1375,89
27.1625,96
27.1875,74
27.2125,94
27.2375,85
27.2625,94
27.2875,77
27.3125,84
27.3375,84
27.3625,91
27.3875,84
27.4125,76
27.4375,77
27.4625,97
27.4875,84
27.5125,92
27.5375,83
27.5625,73
27.5875,84
27.6125,84
27.6375,93
27.6625,71
27.6875,75
27.7125,92
27.7375,69
27.7625,82
27.7875,90
27.8125,58
27.8375,87
27.8625,83
27.8875,81
27.9125,75
27.9375,64
27.9625,74
27.9875,69
28.0125,84
28.0375,70
28.0625,85
28.0875,63
28.1125,102
28.1375,78
28.1625,80
28.1875,68
28.2125,82
28.2375,82
28.2625,68
28.2875,88
28.3125,70
28.3375,93
28.3625,80
28.3875,78
28.4125,84
28.4375,86
28.4625,61
28.4875,74
28.5125,87
28.5375,97
28.5625,68
28.5875,79
28.6125,88
28.6375,84
28.6625,100
28.6875,96
28.7125,80
28.7375,74
28.7625,82
28.7875,96
28.8125,69
28.8375,81
28.8625,74
28.8875,92
28.9125,84
28.9375,71
28.9625,98
28.9875,77
29.0125,84
29.0375,93
29.0625,77
29.0875,80
29.1125,57
29.1375,92
29.1625,85
29.1875,79
29.2125,89
29.2375,77
29.2625,68
29.2875,76
29.3125,85
29.3375,82
29.3625,75
29.3875,83
29.4125,87
29.4375,75
29.4625,72
29.4875,87
29.5125,75
29.5375,66
29.5625,93
29.5875,89
29.6125,66
29.6375,85
29.6625,74
29.6875,69
29.7125,83
29.7375,83
29.7625,79
29.7875,96
29.8125,75
29.8375,79
29.8625,70
29.8875,85
29.9125,72
29.9375,79
29.9625,76
29.9875,64
30.0125,83
30.0375,92
30.0625,80
30.0875,77
30.1125,75
30.1375,77
30.1625,70
30.1875,76
30.2125,83
30.2375,98
30.2625,82
30.2875,75
30.3125,74
30.3375,89
30.3625,69
30.3875,75
30.4125,89
30.4375,71
30.4625,85
30.4875,69
30.5125,82
30.5375,71
30.5625,85
30.5875,60
30.6125,77
30.6375,72
30.6625,77
30.6875,83
30.7125,57
30.7375,84
30.7625,79
30.7875,73
30.8125,73
30.8375,73
30.8625,71
30.8875,78
30.9125,72
30.9375,88
30.9625,75
30.9875,69
31.0125,91
31.0375,90
31.0625,64
31.0875,73
31.1125,71
31.1375,83
31.1625,66
31.1875,81
31.2125,77
31.2375,68
31.2625,67
31.2875,78
31.3125,79
31.3375,54
31.3625,72
31.3875,80
31.4125,79
31.4375,89
31.4625,80
31.4875,70
31.5125,69
31.5375,81
31.5625,75
31.5875,72
31.6125,63
31.6375,62
31.6625,72
31.6875,74
31.7125,78
31.7375,80
31.7625,74
31.7875,71
31.8125,80
31.8375,71
31.8625,89
31.8875,84
31.9125,81
31.9375,106
31.9625,93
31.9875,108
32.0125,100
32.0375,134
32.0625,160
32.0875,160
32.1125,204
32.1375,240
32.1625,220
32.1875,227
32.2125,199
32.2375,252
32.2625,201
32.2875,210
32.3125,196
32.3375,182
32.3625,160
32.3875,153
32.4125,127
32.4375,99
32.4625,119
32.4875,118
32.5125,117
32.5375,86
32.5625,71
32.5875,74
32.6125,83
32.6375,79
32.6625,67
32.6875,81
32.7125,65
32.7375,71
32.7625,70
32.7875,77
32.8125,64
32.8375,73
32.8625,75
32.8875,77
32.9125,59
32.9375,78
32.9625,74
32.9875,76
33.0125,70
33.0375,65
33.0625,69
33.0875,72
33.1125,68
33.1375,74
33.1625,62
33.1875,57
33.2125,74
33.2375,69
33.2625,53
33.2875,59
33.3125,61
33.3375,52
33.3625,54
33.3875,69
33.4125,62
33.4375,66
33.4625,65
33.4875,58
33.5125,62
33.5375,52
33.5625,61
33.5875,54
33.6125,70
33.6375,71
33.6625,71
33.6875,60
33.7125,69
33.7375,84
33.7625,73
33.7875,73
33.8125,60
33.8375,63
33.8625,66
33.8875,63
33.9125,59
33.9375,62
33.9625,65
33.9875,59
34.0125,71
34.0375,72
34.0625,75
34.0875,66
34.1125,61
34.1375,63
34.1625,67
34.1875,69
34.2125,73
34.2375,75
34.2625,83
34.2875,69
34.3125,66
34.3375,71
34.3625,80
34.3875,70
34.4125,83
34.4375,77
34.4625,86
34.4875,87
34.5125,90
34.5375,117
34.5625,95
34.5875,116
34.6125,130
34.6375,148
34.6625,152
34.6875,207
34.7125,208
34.7375,261
34.7625,335
34.7875,393
34.8125,447
34.8375,443
34.8625,514
34.8875,517
34.9125,473
34.9375,434
34.9625,426
34.9875,375
35.0125,279
35.0375,249
35.0625,210
35.0875,174
35.1125,127
35.1375,130
35.1625,119
35.1875,109
35.2125,94
35.2375,78
35.2625,87
35.2875,82
35.3125,90
35.3375,79
35.3625,64
35.3875,60
35.4125,64
35.4375,61
35.4625,55
35.4875,61
35.5125,66
35.5375,62
35.5625,51
35.5875,69
35.6125,53
35.6375,61
35.6625,57
35.6875,64
35.7125,50
35.7375,62
35.7625,55
35.7875,60
35.8125,81
35.8375,54
35.8625,61
35.8875,62
35.9125,52
35.9375,56
35.9625,69
35.9875,66
36.0125,64
36.0375,68
36.0625,69
36.0875,62
36.1125,64
36.1375,58
36.1625,59
36.1875,63
36.2125,66
36.2375,71
36.2625,82
36.2875,81
36.3125,79
36.3375,81
36.3625,105
36.3875,101
36.4125,105
36.4375,139
36.4625,150
36.4875,155
36.5125,190
36.5375,177
36.5625,242
36.5875,254
36.6125,294
36.6375,288
36.6625,346
36.6875,353
36.7125,341
36.7375,329
36.7625,345
36.7875,296
36.8125,252
36.8375,245
36.8625,186
36.8875,164
36.9125,192
36.9375,135
36.9625,123
36.9875,121
37.0125,94
37.0375,84
37.0625,83
37.0875,72
37.1125,70
37.1375,82
37.1625,56
37.1875,65
37.2125,55
37.2375,64
37.2625,53
37.2875,68
37.3125,52
37.3375,58
37.3625,56
37.3875,50
37.4125,49
37.4375,49
37.4625,42
37.4875,52
37.5125,39
37.5375,44
37.5625,49
37.5875,48
37.6125,41
37.6375,44
37.6625,47
37.6875,40
37.7125,53
37.7375,39
37.7625,39
37.7875,40
37.8125,42
37.8375,42
37.8625,43
37.8875,43
37.9125,42
37.9375,32
37.9625,42
37.9875,58
38.0125,35
38.0375,50
38.0625,39
38.0875,41
38.1125,45
38.1375,35
38.1625,36
38.1875,40
38.2125,36
38.2375,48
38.2625,44
38.2875,45
38.3125,34
38.3375,40
38.3625,45
38.3875,40
38.4125,52
38.4375,48
38.4625,42
38.4875,46
38.5125,37
38.5375,32
38.5625,34
38.5875,37
38.6125,45
38.6375,39
38.6625,42
38.6875,26
38.7125,47
38.7375,44
38.7625,45
38.7875,45
38.8125,32
38.8375,47
38.8625,38
38.8875,32
38.9125,46
38.9375,46
38.9625,48
38.9875,41
39.0125,51
39.0375,37
39.0625,40
39.0875,34
39.1125,43
39.1375,47
39.1625,47
39.1875,47
39.2125,40
39.2375,36
39.2625,34
39.2875,42
39.3125,46
39.3375,37
39.3625,37
39.3875,35
39.4125,40
39.4375,38
39.4625,40
39.4875,35
39.5125,36
39.5375,34
39.5625,37
39.5875,29
39.6125,33
39.6375,42
39.6625,31
39.6875,39
39.7125,41
39.7375,36
39.7625,50
39.7875,39
39.8125,43
39.8375,39
39.8625,45
39.8875,31
39.9125,46
39.9375,43
39.9625,29
39.9875,50
40.0125,40
40.0375,39
40.0625,47
40.0875,49
40.1125,45
40.1375,33
40.1625,51
40.1875,41
40.2125,33
40.2375,35
40.2625,34
40.2875,34
40.3125,33
40.3375,36
40.3625,39
40.3875,37
40.4125,43
40.4375,43
40.4625,38
40.4875,45
40.5125,39
40.5375,44
40.5625,48
40.5875,44
40.6125,39
40.6375,44
40.6625,46
40.6875,35
40.7125,46
40.7375,35
40.7625,40
40.7875,51
40.8125,45
40.8375,40
40.8625,41
40.8875,35
40.9125,36
40.9375,39
40.9625,43
40.9875,50
41.0125,28
41.0375,40
41.0625,37
41.0875,40
41.1125,43
41.1375,37
41.1625,35
41.1875,43
41.2125,38
41.2375,40
41.2625,37
41.2875,42
41.3125,41
41.3375,40
41.3625,48
41.3875,34
41.4125,42
41.4375,45
41.4625,35
41.4875,33
41.5125,47
41.5375,47
41.5625,40
41.5875,36
41.6125,24
41.6375,35
41.6625,36
41.6875,35
41.7125,42
41.7375,28
41.7625,31
41.7875,32
41.8125,47
41.8375,35
41.8625,35
41.8875,37
41.9125,50
41.9375,39
41.9625,40
41.9875,56
42.0125,48
42.0375,36
42.0625,44
42.0875,37
42.1125,30
42.1375,33
42.1625,30
42.1875,39
42.2125,46
42.2375,50
42.2625,30
42.2875,32
42.3125,46
42.3375,42
42.3625,44
42.3875,38
42.4125,41
42.4375,47
42.4625,54
42.4875,42
42.5125,43
42.5375,41
42.5625,41
42.5875,48
42.6125,35
42.6375,27
42.6625,40
42.6875,35
42.7125,38
42.7375,30
42.7625,38
42.7875,47
42.8125,34
42.8375,39
42.8625,45
42.8875,43
42.9125,44
42.9375,32
42.9625,47
42.9875,40
43.0125,39
43.0375,40
43.0625,25
43.0875,35
43.1125,44
43.1375,30
43.1625,45
43.1875,46
43.2125,41
43.2375,40
43.2625,47
43.2875,46
43.3125,41
43.3375,43
43.3625,36
43.3875,36
43.4125,60
43.4375,27
43.4625,46
43.4875,42
43.5125,40
43.5375,27
43.5625,28
43.5875,32
43.6125,37
43.6375,43
43.6625,49
43.6875,48
43.7125,42
43.7375,45
43.7625,38
43.7875,32
43.8125,31
43.8375,51
43.8625,47
43.8875,29
43.9125,39
43.9375,38
43.9625,23
43.9875,28
44.0125,52
44.0375,36
44.0625,25
44.0875,38
44.1125,38
44.1375,42
44.1625,41
44.1875,35
44.2125,36
44.2375,45
44.2625,40
44.2875,35
44.3125,37
44.3375,36
44.3625,32
44.3875,40
44.4125,39
44.4375,36
44.4625,43
44.4875,44
44.5125,33
44.5375,42
44.5625,37
44.5875,37
44.6125,40
44.6375,38
44.6625,37
44.6875,45
44.7125,33
44.7375,32
44.7625,37
44.7875,50
44.8125,28
44.8375,39
44.8625,40
44.8875,43
44.9125,44
44.9375,30
44.9625,31
44.9875,33
45.0125,24
45.0375,35
45.0625,33
45.0875,44
45.1125,39
45.1375,31
45.1625,42
45.1875,34
45.2125,37
45.2375,26
45.2625,44
45.2875,39
45.3125,40
45.3375,37
45.3625,42
45.3875,32
45.4125,39
45.4375,31
45.4625,33
45.4875,41
45.5125,27
45.5375,33
45.5625,50
45.5875,36
45.6125,28
45.6375,43
45.6625,37
45.6875,38
45.7125,32
45.7375,41
45.7625,32
45.7875,31
45.8125,39
45.8375,29
45.8625,30
45.8875,45
45.9125,26
45.9375,38
45.9625,32
45.9875,28
46.0125,48
46.0375,51
46.0625,35
46.0875,36
46.1125,29
46.1375,24
46.1625,36
46.1875,39
46.2125,33
46.2375,46
46.2625,35
46.2875,43
46.3125,34
46.3375,50
46.3625,40
46.3875,40
46.4125,41
46.4375,33
46.4625,39
46.4875,32
46.5125,27
46.5375,41
46.5625,45
46.5875,29
46.6125,39
46.6375,36
46.6625,41
46.6875,37
46.7125,29
46.7375,33
46.7625,39
46.7875,41
46.8125,49
46.8375,49
46.8625,44
46.8875,38
46.9125,32
46.9375,44
46.9625,24
46.9875,37
47.0125,45
47.0375,39
47.0625,42
47.0875,40
47.1125,39
47.1375,39
47.1625,34
47.1875,37
47.2125,32
47.2375,36
47.2625,36
47.2875,28
47.3125,48
47.3375,41
47.3625,37
47.3875,39
47.4125,43
47.4375,41
47.4625,35
47.4875,43
47.5125,43
47.5375,38
47.5625,38
47.5875,38
47.6125,51
47.6375,31
47.6625,24
47.6875,44
47.7125,53
47.7375,55
47.7625,49
47.7875,46
47.8125,59
47.8375,50
47.8625,71
47.8875,73
47.9125,71
47.9375,58
47.9625,77
47.9875,69
48.0125,60
48.0375,74
48.0625,63
48.0875,75
48.1125,72
48.1375,62
48.1625,58
48.1875,53
48.2125,68
48.2375,44
48.2625,40
48.2875,51
48.3125,53
48.3375,55
48.3625,44
48.3875,42
48.4125,46
48.4375,36
48.4625,48
48.4875,35
48.5125,44
48.5375,36
48.5625,33
48.5875,35
48.6125,34
48.6375,40
48.6625,36
48.6875,39
48.7125,26
48.7375,49
48.7625,39
48.7875,33
48.8125,32
48.8375,29
48.8625,43
48.8875,32
48.9125,40
48.9375,29
48.9625,29
48.9875,39
49.0125,25
49.0375,35
49.0625,32
49.0875,40
49.1125,31
49.1375,31
49.1625,30
49.1875,33
49.2125,33
49.2375,44
49.2625,33
49.2875,33
49.3125,26
49.3375,25
49.3625,28
49.3875,34
49.4125,38
49.4375,33
49.4625,37
49.4875,38
49.5125,41
49.5375,24
49.5625,39
49.5875,39
49.6125,39
49.6375,23
49.6625,29
49.6875,33
49.7125,33
49.7375,41
49.7625,37
49.7875,25
49.8125,37
49.8375,31
49.8625,39
49.8875,37
49.9125,41
49.9375,34
49.9625,32
49.9875,35
50.0125,25
50.0375,30
50.0625,37
50.0875,30
50.1125,29
50.1375,35
50.1625,31
50.1875,33
50.2125,49
50.2375,36
50.2625,26
50.2875,23
50.3125,40
50.3375,36
50.3625,35
50.3875,25
50.4125,32
50.4375,41
50.4625,32
50.4875,31
50.5125,31
50.5375,36
50.5625,42
50.5875,45
50.6125,35
50.6375,27
50.6625,33
50.6875,40
50.7125,38
50.7375,29
50.7625,35
50.7875,27
50.8125,33
50.8375,31
50.8625,33
50.8875,28
50.9125,32
50.9375,31
50.9625,36
50.9875,32
51.0125,43
51.0375,34
51.0625,32
51.0875,31
51.1125,33
51.1375,36
51.1625,36
51.1875,26
51.2125,31
51.2375,52
51.2625,26
51.2875,29
51.3125,33
51.3375,31
51.3625,42
51.3875,30
51.4125,38
51.4375,41
51.4625,25
51.4875,38
51.5125,42
51.5375,35
51.5625,34
51.5875,34
51.6125,32
51.6375,30
51.6625,32
51.6875,39
51.7125,47
51.7375,40
51.7625,31
51.7875,26
51.8125,38
51.8375,33
51.8625,30
51.8875,31
51.9125,24
51.9375,25
51.9625,35
51.9875,40
52.0125,35
52.0375,34
52.0625,23
52.0875,30
52.1125,32
52.1375,43
52.1625,35
52.1875,33
52.2125,38
52.2375,21
52.2625,41
52.2875,36
52.3125,22
52.3375,35
52.3625,39
52.3875,33
52.4125,27
52.4375,41
52.4625,36
52.4875,41
52.5125,42
52.5375,35
52.5625,33
52.5875,42
52.6125,25
52.6375,44
52.6625,23
52.6875,37
52.7125,27
52.7375,33
52.7625,34
52.7875,35
52.8125,34
52.8375,28
52.8625,31
52.8875,36
52.9125,32
52.9375,36
52.9625,23
52.9875,27
53.0125,30
53.0375,37
53.0625,27
53.0875,33
53.1125,31
53.1375,33
53.1625,29
53.1875,32
53.2125,27
53.2375,36
53.2625,34
53.2875,38
53.3125,26
53.3375,32
53.3625,35
53.3875,33
53.4125,29
53.4375,39
53.4625,32
53.4875,28
53.5125,32
53.5375,30
53.5625,34
53.5875,28
53.6125,30
53.6375,39
53.6625,28
53.6875,30
53.7125,38
53.7375,37
53.7625,25
53.7875,34
53.8125,35
53.8375,36
53.8625,36
53.8875,29
53.9125,34
53.9375,41
53.9625,32
53.9875,21
54.0125,42
54.0375,39
54.0625,31
54.0875,36
54.1125,29
54.1375,25
54.1625,36
54.1875,32
54.2125,32
54.2375,30
54.2625,42
54.2875,34
54.3125,25
54.3375,36
54.3625,36
54.3875,36
54.4125,35
54.4375,27
54.4625,25
54.4875,34
54.5125,28
54.5375,29
54.5625,30
54.5875,37
54.6125,37
54.6375,28
54.6625,46
54.6875,38
54.7125,29
54.7375,30
54.7625,33
54.7875,27
54.8125,33
54.8375,41
54.8625,36
54.8875,30
54.9125,30
54.9375,40
54.9625,27
54.9875,32
55.0125,21
55.0375,48
55.0625,36
55.0875,31
55.1125,33
55.1375,31
55.1625,33
55.1875,32
55.2125,29
55.2375,27
55.2625,26
55.2875,35
55.3125,35
55.3375,32
55.3625,43
55.3875,33
55.4125,28
55.4375,25
55.4625,29
55.4875,33
55.5125,39
55.5375,39
55.5625,31
55.5875,33
55.6125,28
55.6375,29
55.6625,31
55.6875,38
55.7125,35
55.7375,39
55.7625,33
55.7875,34
55.8125,29
55.8375,28
55.8625,42
55.8875,33
55.9125,23
55.9375,31
55.9625,25
55.9875,41
56.0125,39
56.0375,35
56.0625,41
56.0875,42
56.1125,38
56.1375,34
56.1625,37
56.1875,36
56.2125,30
56.2375,32
56.2625,50
56.2875,30
56.3125,37
56.3375,49
56.3625,31
56.3875,40
56.4125,47
56.4375,35
56.4625,32
56.4875,27
56.5125,30
56.5375,40
56.5625,30
56.5875,38
56.6125,46
56.6375,31
56.6625,41
56.6875,47
56.7125,41
56.7375,44
56.7625,48
56.7875,35
56.8125,53
56.8375,47
56.8625,50
56.8875,65
56.9125,60
56.9375,75
56.9625,74
56.9875,59
57.0125,54
57.0375,72
57.0625,82
57.0875,60
57.1125,64
57.1375,67
57.1625,62
57.1875,61
57.2125,65
57.2375,45
57.2625,54
57.2875,52
57.3125,43
57.3375,44
57.3625,49
57.3875,45
57.4125,41
57.4375,26
57.4625,30
57.4875,49
57.5125,32
57.5375,37
57.5625,29
57.5875,39
57.6125,34
57.6375,43
57.6625,39
57.6875,24
57.7125,25
57.7375,43
57.7625,38
57.7875,39
57.8125,37
57.8375,42
57.8625,32
57.8875,42
57.9125,35
57.9375,32
57.9625,33
57.9875,34
58.0125,29
58.0375,28
58.0625,28
58.0875,27
58.1125,29
58.1375,30
58.1625,26
58.1875,34
58.2125,29
58.2375,28
58.2625,30
58.2875,32
58.3125,36
58.3375,28
58.3625,29
58.3875,37
58.4125,34
58.4375,33
58.4625,35
58.4875,33
58.5125,44
58.5375,32
58.5625,24
58.5875,36
58.6125,34
58.6375,30
58.6625,28
58.6875,41
58.7125,31
58.7375,31
58.7625,35
58.7875,33
58.8125,40
58.8375,33
58.8625,31
58.8875,20
58.9125,38
58.9375,29
58.9625,31
58.9875,39
59.0125,41
59.0375,40
59.0625,40
59.0875,44
59.1125,25
59.1375,40
59.1625,41
59.1875,35
59.2125,38
59.2375,29
59.2625,24
59.2875,42
59.3125,35
59.3375,20
59.3625,25
59.3875,34
59.4125,41
59.4375,33
59.4625,32
59.4875,21
59.5125,27
59.5375,38
59.5625,32
59.5875,33
59.6125,35
59.6375,33
59.6625,28
59.6875,25
59.7125,35
59.7375,39
59.7625,30
59.7875,39
59.8125,32
59.8375,15
59.8625,32
59.8875,39
59.9125,41
59.9375,38
59.9625,33
59.9875,31
60.0125,32
60.0375,31
60.0625,37
60.0875,34
60.1125,33
60.1375,30
60.1625,35
60.1875,37
60.2125,28
60.2375,43
60.2625,27
60.2875,34
60.3125,24
60.3375,39
60.3625,32
60.3875,28
60.4125,40
60.4375,44
60.4625,34
60.4875,37
60.5125,36
60.5375,32
60.5625,38
60.5875,36
60.6125,30
60.6375,29
60.6625,41
60.6875,40
60.7125,34
60.7375,38
60.7625,43
60.7875,45
60.8125,38
60.8375,24
60.8625,42
60.8875,41
60.9125,28
60.9375,35
60.9625,41
60.9875,36
61.0125,39
61.0375,34
61.0625,43
61.0875,31
61.1125,38
61.1375,31
61.1625,38
61.1875,30
61.2125,39
61.2375,37
61.2625,30
61.2875,44
61.3125,37
61.3375,33
61.3625,28
61.3875,33
61.4125,32
61.4375,29
61.4625,35
61.4875,36
61.5125,40
61.5375,39
61.5625,36
61.5875,36
61.6125,52
61.6375,37
61.6625,36
61.6875,32
61.7125,28
61.7375,36
61.7625,42
61.7875,26
61.8125,32
61.8375,32
61.8625,25
61.8875,43
61.9125,34
61.9375,32
61.9625,36
61.9875,37
62.0125,22
62.0375,35
62.0625,38
62.0875,23
62.1125,45
62.1375,40
62.1625,44
62.1875,51
62.2125,38
62.2375,40
62.2625,30
62.2875,31
62.3125,36
62.3375,32
62.3625,33
62.3875,37
62.4125,37
62.4375,42
62.4625,32
62.4875,36
62.5125,40
62.5375,42
62.5625,29
62.5875,33
62.6125,37
62.6375,35
62.6625,35
62.6875,36
62.7125,47
62.7375,57
62.7625,35
62.7875,42
62.8125,44
62.8375,43
62.8625,46
62.8875,55
62.9125,50
62.9375,41
62.9625,45
62.9875,48
63.0125,60
63.0375,51
63.0625,71
63.0875,67
63.1125,70
63.1375,61
63.1625,53
63.1875,75
63.2125,61
63.2375,57
63.2625,53
63.2875,75
63.3125,63
63.3375,60
63.3625,60
63.3875,55
63.4125,83
63.4375,65
63.4625,56
63.4875,61
63.5125,58
63.5375,57
63.5625,48
63.5875,48
63.6125,49
63.6375,49
63.6625,44
63.6875,46
63.7125,41
63.7375,38
63.7625,47
63.7875,40
63.8125,39
63.8375,39
63.8625,39
63.8875,51
63.9125,44
63.9375,34
63.9625,25
63.9875,28
64.0125,49
64.0375,27
64.0625,34
64.0875,32
64.1125,35
64.1375,44
64.1625,36
64.1875,46
64.2125,33
64.2375,40
64.2625,47
64.2875,47
64.3125,27
64.3375,45
64.3625,37
64.3875,30
64.4125,28
64.4375,40
64.4625,30
64.4875,33
64.5125,28
64.5375,27
64.5625,33
64.5875,36
64.6125,28
64.6375,30
64.6625,40
64.6875,37
64.7125,45
64.7375,33
64.7625,27
64.7875,31
64.8125,32
64.8375,42
64.8625,35
64.8875,39
64.9125,37
64.9375,41
64.9625,37
64.9875,34
65.0125,45
65.0375,42
65.0625,21
65.0875,29
65.1125,33
65.1375,29
65.1625,51
65.1875,32
65.2125,25
65.2375,37
65.2625,43
65.2875,37
65.3125,33
65.3375,29
65.3625,31
65.3875,36
65.4125,25
65.4375,29
65.4625,38
65.4875,33
65.5125,32
65.5375,43
65.5625,33
65.5875,31
65.6125,36
65.6375,35
65.6625,40
65.6875,32
65.7125,29
65.7375,33
65.7625,30
65.7875,34
65.8125,32
65.8375,47
65.8625,39
65.8875,37
65.9125,27
65.9375,29
65.9625,39
65.9875,47
66.0125,30
66.0375,32
66.0625,40
66.0875,31
66.1125,45
66.1375,39
66.1625,27
66.1875,41
66.2125,31
66.2375,45
66.2625,32
66.2875,22
66.3125,34
66.3375,33
66.3625,37
66.3875,35
66.4125,32
66.4375,40
66.4625,43
66.4875,26
66.5125,39
66.5375,38
66.5625,38
66.5875,43
66.6125,29
66.6375,31
66.6625,33
66.6875,32
66.7125,39
66.7375,36
66.7625,40
66.7875,32
66.8125,36
66.8375,33
66.8625,49
66.8875,40
66.9125,30
66.9375,36
66.9625,36
66.9875,47
67.0125,36
67.0375,36
67.0625,33
67.0875,34
67.1125,36
67.1375,39
67.1625,30
67.1875,33
67.2125,27
67.2375,47
67.2625,31
67.2875,36
67.3125,37
67.3375,22
67.3625,38
67.3875,40
67.4125,27
67.4375,32
67.4625,33
67.4875,35
67.5125,43
67.5375,44
67.5625,41
67.5875,35
67.6125,36
67.6375,25
67.6625,35
67.6875,35
67.7125,36
67.7375,28
67.7625,31
67.7875,45
67.8125,36
67.8375,37
67.8625,39
67.8875,40
67.9125,45
67.9375,44
67.9625,35
67.9875,45
68.0125,36
68.0375,38
68.0625,59
68.0875,61
68.1125,40
68.1375,60
68.1625,55
68.1875,45
68.2125,55
68.2375,46
68.2625,41
68.2875,45
68.3125,58
68.3375,56
68.3625,64
68.3875,53
68.4125,47
68.4375,70
68.4625,54
68.4875,40
68.5125,41
68.5375,44
68.5625,59
68.5875,47
68.6125,49
68.6375,55
68.6625,55
68.6875,38
68.7125,49
68.7375,45
68.7625,39
68.7875,40
68.8125,35
68.8375,42
68.8625,32
68.8875,37
68.9125,39
68.9375,36
68.9625,43
68.9875,53
69.0125,49
69.0375,31
69.0625,45
69.0875,43
69.1125,46
69.1375,47
69.1625,36
69.1875,31
69.2125,41
69.2375,33
69.2625,51
69.2875,40
69.3125,40
69.3375,43
69.3625,45
69.3875,31
69.4125,55
69.4375,48
69.4625,47
69.4875,54
69.5125,55
69.5375,51
69.5625,46
69.5875,58
69.6125,53
69.6375,37
69.6625,38
69.6875,38
69.7125,43
69.7375,51
69.7625,48
69.7875,43
69.8125,51
69.8375,49
69.8625,24
69.8875,33
69.9125,33
69.9375,30
69.9625,30
